Fx [N], Fy [N], Fz [N], Mx [Nm], My [Nm], Mz [Nm]
0.253411, 1.42294, -7.05607, -0.82855, -0.480181, -0.010644
0.271295, 1.48478, -7.29174, -0.797478, -0.437726, -0.003936
0.277924, 1.54637, -7.44109, -0.818678, -0.423363, -0.00269
0.280955, 1.59046, -7.55517, -0.949036, -0.470101, -0.033264
0.301397, 1.64326, -7.73604, -1.29127, -0.493213, -0.03966
0.320481, 1.66258, -7.87985, -1.59211, -0.416114, -0.017657
0.348051, 1.64109, -7.85952, -1.80505, -0.360234, -0.057909
0.376212, 1.57995, -7.8191, -1.91344, -0.324678, -0.124911
0.405057, 1.51801, -7.78667, -1.91217, -0.25515, -0.119236
0.429417, 1.4405, -7.74162, -1.86098, -0.218634, -0.104256
0.461183, 1.36153, -7.75745, -1.76274, -0.141799, -0.113748
0.499686, 1.27174, -7.64396, -1.65828, -0.085913, -0.106981
0.52287, 1.20453, -7.51426, -1.54235, -0.057746, -0.096941
0.546615, 1.14068, -7.45093, -1.40667, -0.068987, -0.089355
0.582486, 1.11218, -7.56354, -1.2845, -0.058275, -0.103252
0.642276, 1.10943, -7.78219, -1.16929, -0.048552, -0.080397
0.702194, 1.12745, -8.00379, -1.08759, -0.006627, -0.085263
0.764773, 1.15531, -8.23958, -1.04477, 0.043057, -0.085568
0.833533, 1.19872, -8.55168, -1.04751, 0.088561, -0.067125
0.890577, 1.23068, -8.76187, -1.11017, 0.131448, -0.075367
0.955097, 1.23995, -8.81149, -1.27755, 0.26649, -0.084805
1.02942, 1.22432, -8.85043, -1.40452, 0.454147, -0.07464
1.05993, 1.19301, -8.89959, -1.42077, 0.551427, -0.10292
1.07428, 1.13404, -8.89321, -1.36496, 0.573991, -0.105303
1.08196, 1.08784, -8.9952, -1.27092, 0.544823, -0.100914
1.10943, 1.05647, -9.12762, -1.19342, 0.521687, -0.097975
1.16329, 1.03212, -9.31914, -1.12502, 0.563731, -0.114901
1.22216, 1.00877, -9.35912, -1.08345, 0.641765, -0.100887
1.26743, 0.97814, -9.28289, -1.08589, 0.736276, -0.105601
1.30191, 0.943305, -9.18001, -1.07615, 0.830659, -0.094624
1.31389, 0.910545, -9.14167, -1.07838, 0.994216, -0.083912
1.32636, 0.880926, -9.20635, -1.0564, 1.17396, -0.089898
1.32141, 0.83504, -9.27265, -1.01873, 1.33629, -0.087991
1.28324, 0.776834, -9.36673, -0.91717, 1.45459, -0.089044
1.22269, 0.722358, -9.5064, -0.785672, 1.4759, -0.072973
1.11064, 0.660827, -9.61587, -0.662657, 1.37584, -0.071836
0.944129, 0.589118, -9.43076, -0.514668, 1.1079, -0.067609
0.788219, 0.540098, -9.3446, -0.404404, 0.859902, -0.063325
0.612288, 0.494345, -9.41574, -0.303636, 0.587034, -0.072237
0.443452, 0.451505, -9.39839, -0.231353, 0.295546, -0.080544
0.280721, 0.431773, -9.51947, -0.162116, 0.017219, -0.061458
0.139718, 0.440859, -9.73395, -0.118859, -0.20729, -0.060142
0.003782, 0.461738, -9.97888, -0.104575, -0.469928, -0.064941
-0.120392, 0.527077, -10.351, -0.131327, -0.695244, -0.064743
-0.236987, 0.613215, -10.6289, -0.21219, -0.841264, -0.062593
-0.348394, 0.701931, -10.7578, -0.296234, -0.946189, -0.055787
-0.459532, 0.810997, -10.9556, -0.361419, -1.01456, -0.067948
-0.570159, 0.941515, -11.0061, -0.392989, -1.03494, -0.060211
-0.676169, 1.07271, -10.9723, -0.399007, -1.02266, -0.06279
-0.767803, 1.22379, -10.9578, -0.375329, -1.00068, -0.031071
-0.850612, 1.38955, -10.8616, -0.328726, -0.974854, -0.033153
-0.960986, 1.55414, -10.8702, -0.401176, -1.08759, -0.037828
-1.02132, 1.72403, -10.9212, -0.291758, -0.98348, -0.051907
-1.03953, 1.89176, -10.9319, -0.065596, -0.768299, -0.068286
-1.03616, 1.99971, -10.8343, 0.215873, -0.550595, -0.120089
-1.02825, 2.12541, -10.8038, 0.246349, -0.639103, -0.179173
-1.01397, 2.23432, -10.7814, 0.527626, -0.557741, -0.184452
-0.957687, 2.40127, -10.8465, 0.601496, -0.492384, -0.179682
-0.892676, 2.47485, -10.757, 0.719665, -0.446452, -0.135521
-0.820208, 2.53062, -10.6349, 0.739584, -0.426128, -0.146348
-0.761151, 2.59489, -10.5433, 0.697523, -0.458608, -0.165269
-0.713059, 2.62506, -10.4623, 0.620975, -0.537295, -0.213493
-0.656016, 2.65625, -10.343, 0.418596, -0.692897, -0.24053
-0.592016, 2.64801, -10.1301, 0.100938, -0.848482, -0.219934
-0.535162, 2.66869, -10.0491, -0.301312, -1.01767, -0.22128
-0.458366, 2.67463, -10.0367, -0.711528, -1.16649, -0.22858
-0.381855, 2.67296, -10.0298, -0.900839, -1.25978, -0.242283
-0.277684, 2.60081, -10.0553, -0.701329, -1.30229, -0.250886
-0.187674, 2.61683, -9.99248, -0.928228, -1.3214, -0.2684
-0.105545, 2.59403, -9.87159, -0.937388, -1.29786, -0.255289
-0.021558, 2.56618, -9.73055, -0.900869, -1.23705, -0.246694
0.030079, 2.53964, -9.64186, -0.869505, -1.17744, -0.24183
0.075428, 2.59045, -9.77509, -0.968276, -1.14058, -0.223309
0.10175, 2.64228, -9.9373, -1.17584, -1.05218, -0.21994
0.158933, 2.63625, -9.87372, -1.43713, -0.900674, -0.197905
0.194616, 2.64295, -9.91196, -1.82462, -0.775276, -0.207402
0.210723, 2.64931, -9.97653, -2.31021, -0.709953, -0.214222
0.229163, 2.62327, -10.1073, -2.736, -0.616614, -0.22327
0.262926, 2.54757, -10.2207, -3.01216, -0.531903, -0.214033
0.296437, 2.43434, -10.2097, -3.07475, -0.448233, -0.175755
0.319743, 2.32582, -10.1156, -3.02921, -0.426335, -0.135695
0.330299, 2.24732, -10.1511, -2.95077, -0.480019, -0.134381
0.343547, 2.19152, -10.2535, -2.84557, -0.51553, -0.150648
0.392585, 2.16112, -10.2493, -2.65121, -0.535639, -0.090742
0.442404, 2.13435, -10.2711, -2.49416, -0.512634, -0.095427
0.493696, 2.13598, -10.2834, -2.49066, -0.481985, -0.097771
0.544222, 2.13614, -10.3627, -2.64596, -0.367338, -0.091557
0.608822, 2.11917, -10.4972, -2.80324, -0.183484, -0.119516
0.658695, 2.02841, -10.4517, -2.83715, -0.006059, -0.146802
0.697385, 1.89923, -10.3644, -2.71268, 0.171004, -0.144672
0.740866, 1.72593, -10.2081, -2.51105, 0.305809, -0.137178
0.767411, 1.55191, -10.0353, -2.26334, 0.414395, -0.130559
0.792515, 1.36666, -9.7857, -1.97277, 0.47736, -0.119034
0.784007, 1.21711, -9.7376, -1.71693, 0.455465, -0.114526
0.800726, 1.12732, -9.89972, -1.55956, 0.4751, -0.11229
0.857633, 1.08205, -9.93672, -1.45966, 0.604784, -0.067671
0.872494, 1.06608, -9.98638, -1.33037, 0.737993, -0.051672
0.87752, 1.06931, -10.1183, -1.08393, 0.882402, -0.039191
0.831933, 1.10923, -10.2411, -1.15948, 0.846089, -0.027753
0.766474, 1.1479, -10.3198, -1.27607, 0.805918, -0.019482
0.677732, 1.15966, -10.4251, -1.37289, 0.688435, -0.04875
0.587551, 1.14539, -10.3785, -1.43157, 0.508165, -0.051471
0.508151, 1.09482, -10.3297, -1.44399, 0.350156, -0.062152
0.442724, 1.02542, -10.2159, -1.36738, 0.171008, -0.064291
0.397762, 0.961146, -10.2392, -1.28241, 0.028931, -0.066389
0.335237, 0.919864, -10.5102, -1.21379, -0.206308, -0.0766
0.335432, 0.883212, -10.5858, -1.10803, -0.312702, -0.070433
0.360105, 0.868023, -10.6837, -0.947001, -0.381421, -0.06565
0.38974, 0.867648, -10.7621, -0.859037, -0.343819, -0.070918
0.448801, 0.877194, -10.8853, -0.868231, -0.28342, -0.071525
0.493541, 0.88577, -10.9706, -0.913911, -0.182122, -0.080465
0.550295, 0.879216, -10.9285, -0.969365, -0.090976, -0.07017
0.612749, 0.85094, -10.9631, -0.960079, -0.002689, -0.075674
0.685816, 0.814303, -11.0903, -0.923266, 0.141984, -0.086672
0.748012, 0.756116, -10.9877, -0.850199, 0.267167, -0.094198
0.807588, 0.692554, -10.7777, -0.740495, 0.354799, -0.08514
0.869398, 0.643196, -10.7391, -0.647295, 0.423731, -0.082733
0.933949, 0.616428, -10.8234, -0.541226, 0.508623, -0.0798
0.986864, 0.591131, -10.8275, -0.507178, 0.593264, -0.079392
1.02607, 0.55737, -10.7148, -0.476502, 0.662851, -0.082435
1.05838, 0.531699, -10.4388, -0.445965, 0.694799, -0.07887
1.07147, 0.490688, -10.1067, -0.415155, 0.726848, -0.088416
1.07096, 0.449394, -9.8141, -0.356589, 0.720973, -0.079271
1.10483, 0.426326, -9.75698, -0.219966, 0.687779, -0.071294
1.13812, 0.416614, -9.87255, -0.022115, 0.737307, -0.046135
1.16708, 0.43277, -9.95701, 0.089991, 0.865576, -0.044164
1.19617, 0.46848, -10.0276, 0.090169, 1.01553, -0.030193
1.23583, 0.506496, -10.1393, 0.010792, 1.17517, -0.035796
1.25652, 0.532123, -10.1027, -0.215525, 1.41971, -0.044493
1.23643, 0.529253, -10.038, -0.474977, 1.41733, -0.080471
1.19361, 0.470307, -9.89874, -0.485683, 1.30057, -0.088234
1.14128, 0.385393, -9.60204, -0.391413, 1.19193, -0.101572
1.09559, 0.298492, -9.28456, -0.252472, 1.07473, -0.094371
1.05679, 0.232192, -9.01217, -0.152052, 0.971, -0.109467
1.02594, 0.187955, -8.87604, -0.018625, 0.850565, -0.098553
1.02781, 0.156419, -8.9803, 0.320829, 0.676094, -0.066346
1.055, 0.181688, -9.0926, 0.50841, 0.835355, -0.057995
1.08283, 0.274848, -9.16961, 0.435488, 0.936764, -0.039942
1.10433, 0.395621, -9.29766, 0.263699, 0.994689, -0.034858
1.10894, 0.529088, -9.50414, 0.068683, 1.01748, -0.024138
1.09944, 0.645054, -9.74084, -0.106916, 0.976723, -0.026975
1.06719, 0.724033, -9.8583, -0.237485, 0.893217, -0.030755
1.05944, 0.76579, -9.91355, -0.352452, 0.805223, -0.049309
1.06789, 0.7877, -9.86962, -0.756934, 0.714833, -0.087072
1.07916, 0.727198, -9.65462, -0.824949, 0.829651, -0.09641
1.10196, 0.621041, -9.40221, -0.706945, 0.864933, -0.097871
1.11326, 0.486544, -9.07888, -0.544783, 0.891633, -0.094487
1.10955, 0.367164, -8.62923, -0.38606, 0.872761, -0.114348
1.10822, 0.286954, -8.26198, -0.30261, 0.835052, -0.109932
1.12546, 0.231835, -8.08415, -0.201257, 0.782383, -0.109796
1.1275, 0.206383, -8.10882, -0.002936, 0.71644, -0.086656
1.15515, 0.193836, -8.21154, 0.363386, 0.815947, -0.053334
1.1876, 0.216685, -8.42319, 0.416583, 1.02626, -0.049315
1.21752, 0.254456, -8.78004, 0.378286, 1.2424, -0.038945
1.22414, 0.291217, -9.05129, 0.255646, 1.39678, -0.063628
1.18305, 0.309219, -9.06611, 0.09634, 1.45307, -0.067351
1.13704, 0.313753, -9.0022, -0.02577, 1.3733, -0.080342
1.08784, 0.294678, -8.98179, -0.035492, 1.30923, -0.080974
1.03583, 0.263702, -8.87858, -0.011795, 1.20019, -0.08246
0.986552, 0.233666, -8.7877, 0.04663, 1.1333, -0.09594
0.964635, 0.218566, -8.83327, 0.17061, 1.09586, -0.092459
0.946184, 0.213692, -8.92078, 0.347411, 1.03694, -0.082191
0.923373, 0.228166, -8.90379, 0.417015, 0.922199, -0.063905
0.906609, 0.260377, -8.85706, 0.401099, 0.823574, -0.046336
0.892874, 0.30204, -9.07268, 0.352484, 0.761995, -0.045468
0.880065, 0.338293, -9.21187, 0.305987, 0.728545, -0.046517
0.853999, 0.36038, -9.21417, 0.223626, 0.694372, -0.047381
0.853673, 0.370546, -9.20642, 0.148323, 0.653385, -0.049158
0.840382, 0.384045, -9.08521, -0.169863, 0.590223, -0.069929
0.830313, 0.366152, -8.92881, -0.258017, 0.598502, -0.086894
0.842757, 0.331099, -8.84386, -0.181313, 0.581111, -0.088642
0.851627, 0.290346, -8.63993, -0.109343, 0.510773, -0.086722
0.854261, 0.268982, -8.46418, -0.01868, 0.437732, -0.084235
0.872768, 0.24171, -8.33061, 0.07994, 0.377304, -0.077387
0.900711, 0.231367, -8.24937, 0.200104, 0.377992, -0.064633
0.954152, 0.240436, -8.24329, 0.255274, 0.419045, -0.060363
1.00964, 0.274598, -8.31759, 0.28342, 0.483946, -0.038682
1.05724, 0.319803, -8.31598, 0.266882, 0.52541, -0.035979
1.08878, 0.355097, -8.27022, 0.234745, 0.54169, -0.04188
1.12072, 0.395683, -8.25033, 0.214279, 0.56306, -0.035961
1.15564, 0.425921, -8.1963, 0.179566, 0.548853, -0.03508
1.17104, 0.448609, -8.18288, 0.118916, 0.53143, -0.049014
1.20246, 0.46781, -8.23767, 0.067329, 0.516126, -0.052364
1.21876, 0.481042, -8.24195, -0.016229, 0.522448, -0.044966
1.23317, 0.484629, -8.06824, -0.209326, 0.628799, -0.065882
1.26812, 0.489405, -7.90661, -0.374993, 0.851707, -0.080136
1.26771, 0.477873, -7.77814, -0.364071, 1.01589, -0.088787
1.25123, 0.458891, -7.69526, -0.278385, 1.13568, -0.085544
1.24872, 0.446982, -7.65586, -0.125736, 1.23037, -0.057098
1.22745, 0.441353, -7.59236, 0.037416, 1.21914, -0.041068
1.19555, 0.447717, -7.57152, 0.167598, 1.12211, -0.04108
1.1739, 0.475124, -7.67779, 0.17212, 1.00076, -0.029391
1.15788, 0.514053, -7.81252, 0.181947, 0.894962, -0.026502
1.13993, 0.544787, -7.907, 0.15364, 0.815114, -0.017784
1.15372, 0.576478, -8.02427, 0.106295, 0.78596, -0.025586
1.17125, 0.605567, -8.10707, 0.080585, 0.791695, -0.024371
1.17738, 0.637369, -8.14974, 0.049831, 0.819651, -0.02728
1.19456, 0.659219, -8.15596, 0.013974, 0.866058, -0.019685
1.19723, 0.6842, -8.24499, -0.024596, 0.914676, -0.024241
1.19413, 0.700591, -8.25503, -0.078455, 0.898649, -0.013067
1.17896, 0.701193, -8.26547, -0.109793, 0.837552, -0.030031
1.17051, 0.708187, -8.23387, -0.193249, 0.733237, -0.049431
1.14922, 0.705753, -8.14566, -0.308189, 0.598166, -0.05964
1.15394, 0.708229, -8.13383, -0.350735, 0.552306, -0.065501
1.16746, 0.708315, -8.07737, -0.33963, 0.54406, -0.062416
1.15755, 0.696868, -8.03255, -0.278314, 0.49221, -0.056895
1.16158, 0.690486, -8.03002, -0.189896, 0.485124, -0.049777
1.19046, 0.696318, -8.13226, -0.094326, 0.546774, -0.037735
1.21204, 0.70857, -8.24896, -0.022823, 0.688215, -0.031005
1.23571, 0.721957, -8.27912, -0.012571, 0.795119, -0.018274
1.24725, 0.762414, -8.35373, -0.000407, 0.861212, -0.01175
1.2702, 0.799258, -8.42032, -0.036235, 0.900855, 0.000339
1.27284, 0.8402, -8.42065, -0.07385, 0.90224, 0.000342
1.26289, 0.862719, -8.41292, -0.126793, 0.869415, -0.00445
1.24428, 0.893136, -8.46935, -0.182668, 0.776463, -0.000967
1.21331, 0.908465, -8.53303, -0.40133, 0.5874, -0.034133
1.22331, 0.928735, -8.5338, -0.769924, 0.651973, -0.084303
1.23746, 0.880033, -8.44377, -0.878461, 0.729108, -0.093206
1.24122, 0.814261, -8.2484, -0.884717, 0.766175, -0.098096
1.25254, 0.735838, -8.01867, -0.84001, 0.808936, -0.106354
1.26108, 0.659256, -7.7869, -0.764539, 0.843714, -0.118879
1.25954, 0.579579, -7.55293, -0.697115, 0.826819, -0.127665
1.23642, 0.515876, -7.36277, -0.609834, 0.781931, -0.120662
1.22948, 0.480426, -7.25726, -0.505156, 0.689446, -0.116616
1.21441, 0.461637, -7.20366, -0.376191, 0.591494, -0.096151
1.22613, 0.439564, -7.31014, -0.039263, 0.539714, -0.060661
1.26116, 0.442423, -7.42221, 0.084521, 0.684145, -0.036912
1.29692, 0.478438, -7.52897, 0.137172, 0.795552, -0.028736
1.31875, 0.496214, -7.62411, 0.11279, 0.890518, -0.033886
1.3342, 0.525609, -7.75558, 0.041548, 1.03194, -0.031334
1.34605, 0.537891, -7.79132, -0.129254, 1.21451, -0.052289
1.33957, 0.558664, -7.82308, -0.329745, 1.31212, -0.076819
1.32628, 0.542871, -7.71691, -0.419138, 1.33148, -0.088388
1.29499, 0.523233, -7.64827, -0.413541, 1.36509, -0.086824
1.28655, 0.511463, -7.63764, -0.334065, 1.40232, -0.076049
1.26432, 0.501789, -7.61713, -0.271401, 1.42762, -0.07291
1.24624, 0.497805, -7.65686, -0.176502, 1.4314, -0.068074
1.23096, 0.501822, -7.7126, -0.11913, 1.41267, -0.05311
1.20912, 0.511339, -7.75883, -0.102408, 1.38238, -0.05533
1.20526, 0.523415, -7.85709, -0.094385, 1.33059, -0.041839
1.19964, 0.540284, -7.96608, -0.10693, 1.29011, -0.051752
1.18739, 0.54169, -8.13705, -0.133742, 1.1919, -0.04922
1.18443, 0.545679, -8.33902, -0.249092, 1.08548, -0.065211
1.18172, 0.562283, -8.4147, -0.445098, 1.04876, -0.084507
1.20754, 0.559327, -8.37519, -0.534384, 1.12047, -0.094553
1.21907, 0.555686, -8.23622, -0.494957, 1.20089, -0.092111
1.21049, 0.540242, -8.12257, -0.357503, 1.2138, -0.078411
1.20321, 0.528135, -8.08462, -0.115529, 1.21725, -0.047286
1.20622, 0.52613, -8.16234, 0.020638, 1.15314, -0.039512
1.19189, 0.533985, -8.26695, 0.010887, 1.05522, -0.041524
1.1913, 0.549964, -8.30535, -0.027335, 1.00527, -0.042069
1.17437, 0.556117, -8.32146, -0.042148, 0.968577, -0.043598
1.18223, 0.563315, -8.37409, -0.103267, 0.928126, -0.046326
1.18631, 0.570713, -8.38519, -0.223543, 0.984021, -0.065471
1.20596, 0.585879, -8.36634, -0.39544, 1.14259, -0.07655
1.22303, 0.586579, -8.35906, -0.475748, 1.28314, -0.084506
1.22082, 0.576221, -8.28842, -0.469054, 1.29324, -0.07943
1.20335, 0.568777, -8.25172, -0.394129, 1.21465, -0.08088
1.17968, 0.553348, -8.31867, -0.208568, 1.04257, -0.064494
1.1747, 0.544702, -8.3477, -0.022517, 0.978174, -0.051191
1.17576, 0.553179, -8.3594, 0.025098, 1.013, -0.038239
1.17541, 0.561656, -8.37365, 0.008602, 1.05383, -0.037848
1.1856, 0.577069, -8.38605, -0.039274, 1.11176, -0.035844
1.20115, 0.592693, -8.42091, -0.091836, 1.20939, -0.042777
1.21077, 0.597872, -8.38721, -0.158279, 1.28076, -0.047547
1.2046, 0.607484, -8.39751, -0.187802, 1.28219, -0.051669
1.19929, 0.605621, -8.38724, -0.179392, 1.2189, -0.049387
1.18958, 0.597038, -8.44917, -0.12158, 1.09918, -0.049522
1.1895, 0.593063, -8.471, -0.075481, 1.05075, -0.047566
1.19646, 0.602038, -8.46874, -0.069112, 1.03789, -0.036329
1.19519, 0.608662, -8.47693, -0.077381, 1.00806, -0.041769
1.19132, 0.610082, -8.463, -0.10176, 0.984773, -0.046479
1.19798, 0.618323, -8.44518, -0.155192, 1.04836, -0.043968
1.20015, 0.627045, -8.38602, -0.304347, 1.15336, -0.063579
1.20859, 0.629396, -8.36641, -0.374398, 1.25051, -0.066592
1.21105, 0.623482, -8.30423, -0.406915, 1.32677, -0.066685
1.22389, 0.622741, -8.30211, -0.375601, 1.37851, -0.062087
1.22347, 0.622048, -8.31961, -0.291135, 1.40646, -0.047586
1.21019, 0.617943, -8.32143, -0.228541, 1.3629, -0.05483
1.20143, 0.618779, -8.28652, -0.172806, 1.30887, -0.039314
1.19156, 0.627958, -8.3186, -0.172678, 1.28723, -0.034628
1.20095, 0.639755, -8.44174, -0.215654, 1.31619, -0.036742
1.20235, 0.651982, -8.51092, -0.312964, 1.38811, -0.044673
1.19058, 0.66199, -8.52979, -0.392488, 1.42129, -0.061261
1.17789, 0.659405, -8.45918, -0.411465, 1.40855, -0.055169
1.15406, 0.662352, -8.4328, -0.374785, 1.37888, -0.056523
1.13456, 0.673249, -8.52324, -0.359855, 1.34907, -0.05475
1.11788, 0.691258, -8.61595, -0.369105, 1.31506, -0.058442
1.10303, 0.712964, -8.67417, -0.404049, 1.2772, -0.046354
1.08893, 0.72224, -8.74495, -0.447374, 1.22762, -0.056167
1.07269, 0.740826, -8.82743, -0.49756, 1.19863, -0.046273
1.06673, 0.742983, -8.84629, -0.629286, 1.15426, -0.060102
1.05163, 0.751978, -8.84904, -0.773431, 1.06787, -0.074694
1.04588, 0.7485, -8.81696, -0.841408, 0.958648, -0.078725
1.04845, 0.735422, -8.84927, -0.822705, 0.943569, -0.088911
1.05615, 0.714945, -8.8309, -0.828177, 0.995709, -0.076587
1.06939, 0.682434, -8.77262, -0.818977, 1.05446, -0.083164
1.07145, 0.64715, -8.73628, -0.758107, 1.07009, -0.093641
1.06596, 0.611264, -8.7036, -0.695026, 1.02489, -0.094596
1.05216, 0.5781, -8.77975, -0.607634, 0.984369, -0.104027
1.05541, 0.557157, -8.83163, -0.562896, 1.04177, -0.091308
1.07965, 0.538623, -8.82325, -0.453379, 1.207, -0.08348
1.08831, 0.525563, -8.79175, -0.244502, 1.25028, -0.06006
1.0715, 0.533094, -8.80726, -0.1441, 1.20549, -0.054499
1.04976, 0.556343, -8.85127, -0.129937, 1.14574, -0.047105
1.03757, 0.581827, -8.96604, -0.144974, 1.08844, -0.045975
1.0292, 0.61692, -9.06075, -0.192087, 1.0631, -0.038319
1.02007, 0.637574, -9.132, -0.255213, 1.10162, -0.056223
1.03111, 0.655239, -9.18296, -0.377734, 1.14492, -0.056101
1.02908, 0.665631, -9.2605, -0.59959, 1.16869, -0.061384
1.02014, 0.665243, -9.27327, -0.711848, 1.09023, -0.079643
1.00909, 0.636663, -9.24676, -0.709209, 1.03176, -0.07654
0.996696, 0.611875, -9.17606, -0.64965, 0.960266, -0.087067
0.986602, 0.583326, -9.20782, -0.60363, 0.892514, -0.086538
1.00094, 0.574482, -9.30598, -0.510072, 0.91157, -0.079237
1.01957, 0.557681, -9.33281, -0.248425, 1.01639, -0.056626
1.00392, 0.562176, -9.2755, -0.080595, 1.01796, -0.044424
0.992965, 0.60737, -9.27777, -0.134028, 0.983648, -0.042056
0.983655, 0.667281, -9.36035, -0.176007, 0.930222, -0.030624
0.960939, 0.724712, -9.528, -0.27846, 0.860289, -0.034141
0.941836, 0.783282, -9.67949, -0.3644, 0.813466, -0.036529
0.928489, 0.819005, -9.78654, -0.436301, 0.755059, -0.038502
0.920066, 0.83558, -9.83583, -0.576979, 0.794588, -0.0529
0.934313, 0.858606, -9.83402, -0.971833, 0.87549, -0.072469
0.939031, 0.817601, -9.74543, -1.00308, 0.875237, -0.07466
0.944076, 0.7615, -9.57611, -0.947561, 0.857526, -0.085778
0.944906, 0.697484, -9.37401, -0.826952, 0.797048, -0.088105
0.933434, 0.652719, -9.17373, -0.71725, 0.703714, -0.081085
0.918819, 0.608524, -9.00787, -0.59579, 0.602891, -0.084367
0.923482, 0.571337, -8.88443, -0.457952, 0.540259, -0.09009
0.940919, 0.56296, -8.86748, -0.313707, 0.509526, -0.07875
0.986717, 0.565437, -8.89724, -0.263821, 0.519202, -0.061309
